 State            1  Energy k =   -119.64819583472126     
    0.900000  1244.272304     0.021367
    0.910000  1005.031618     0.045591
    0.920000   802.993580     0.074906
    0.930000   632.488543     0.111104
    0.940000   488.732372     0.155631
    0.950000   367.682748     0.209595
    0.960000   265.919803     0.273740
    0.970000   180.546769     0.348403
    0.980000   109.107162     0.433488
    0.990000    49.515610     0.528453
    1.000000     0.000000     0.632324
    1.010000   -40.947007     0.743732
    1.020000   -74.608655     0.860972
    1.030000  -102.078282     0.982075
    1.040000  -124.288107     1.104897
    1.050000  -142.033484     1.227206
    1.060000  -155.993383     1.346775
    1.070000  -166.747698     1.461462
    1.080000  -174.791901     1.569285
    1.090000  -180.549451     1.668475
    1.100000  -184.382334     1.757529
    1.110000  -186.600009     1.835231
    1.120000  -187.467021     1.900671
    1.130000  -187.209480     1.953269
    1.140000  -186.020584     1.992924
    1.150000  -184.065334     2.019760
    1.160000  -181.484558     2.034122
    1.170000  -178.398348     2.036546
    1.180000  -174.909010     2.027727
    1.190000  -171.103582     2.008481
    1.200000  -167.055991     1.979719
    1.210000  -162.828915     1.942412
    1.220000  -158.475363     1.897563
    1.230000  -154.040051     1.846187
    1.240000  -149.560569     1.789286
    1.250000  -145.068392     1.727833
    1.260000  -140.589753     1.662757
    1.270000  -136.146385     1.594933
    1.280000  -131.756165     1.525171
    1.290000  -127.433675     1.454217
    1.300000  -123.190671     1.382741
    1.310000  -119.036502     1.311344
    1.320000  -114.978458     1.240553
    1.330000  -111.022082     1.170827
    1.340000  -107.171431     1.102557
    1.350000  -103.429303     1.036069
    1.360000   -99.797431     0.971634
    1.370000   -96.276656     0.909466
    1.380000   -92.867067     0.849729
    1.390000   -89.568132     0.792546
    1.400000   -86.378798     0.737996
    1.410000   -83.297589     0.686126
    1.420000   -80.322682     0.636952
    1.430000   -77.451978     0.590465
    1.440000   -74.683155     0.546630
    1.450000   -72.013722     0.505398
    1.460000   -69.441060     0.466703
    1.470000   -66.962458     0.430466
    1.480000   -64.575141     0.396599
    1.490000   -62.276300     0.365006
    1.500000   -60.063111     0.335589
    1.510000   -57.932754     0.308242
    1.520000   -55.882427     0.282861
    1.530000   -53.909359     0.259339
    1.540000   -52.010822     0.237572
    1.550000   -50.184137     0.217455
    1.560000   -48.426681     0.198887
    1.570000   -46.735894     0.181770
    1.580000   -45.109282     0.166007
    1.590000   -43.544419     0.151509
    1.600000   -42.038948     0.138186
    1.610000   -40.590589     0.125957
    1.620000   -39.197130     0.114741
    1.630000   -37.856436     0.104464
    1.640000   -36.566443     0.095055
    1.650000   -35.325159     0.086448
    1.660000   -34.130665     0.078581
    1.670000   -32.981110     0.071395
    1.680000   -31.874715     0.064836
    1.690000   -30.809764     0.058853
    1.700000   -29.784611     0.053400
    1.710000   -28.797671     0.048431
    1.720000   -27.847421     0.043908
    1.730000   -26.932400     0.039792
    1.740000   -26.051203     0.036049
    1.750000   -25.202484     0.032646
    1.760000   -24.384948     0.029555
    1.770000   -23.597355     0.026747
    1.780000   -22.838515     0.024199
    1.790000   -22.107286     0.021887
    1.800000   -21.402573     0.019790
    1.810000   -20.723327     0.017889
    1.820000   -20.068540     0.016167
    1.830000   -19.437249     0.014606
    1.840000   -18.828529     0.013193
    1.850000   -18.241492     0.011914
    1.860000   -17.675290     0.010756
    1.870000   -17.129106     0.009708
    1.880000   -16.602162     0.008761
    1.890000   -16.093707     0.007905
    1.900000   -15.603026     0.007131
    1.910000   -15.129430     0.006431
    1.920000   -14.672261     0.005799
    1.930000   -14.230886     0.005228
    1.940000   -13.804699     0.004713
    1.950000   -13.393121     0.004247
    1.960000   -12.995594     0.003827
    1.970000   -12.611584     0.003448
    1.980000   -12.240580     0.003106
    1.990000   -11.882090     0.002798
    2.000000   -11.535645     0.002520
    2.010000   -11.200791     0.002269
    2.020000   -10.877096     0.002043
    2.030000   -10.564144     0.001839
    2.040000   -10.261537     0.001655
    2.050000    -9.968892     0.001490
    2.060000    -9.685842     0.001341
    2.070000    -9.412035     0.001206
    2.080000    -9.147131     0.001085
    2.090000    -8.890808     0.000976
    2.100000    -8.642752     0.000878
    2.110000    -8.402665     0.000790
    2.120000    -8.170259     0.000710
    2.130000    -7.945258     0.000639
    2.140000    -7.727397     0.000575
    2.150000    -7.516421     0.000517
    2.160000    -7.312087     0.000464
    2.170000    -7.114157     0.000418
    2.180000    -6.922407     0.000375
    2.190000    -6.736620     0.000337
    2.200000    -6.556586     0.000303
    2.210000    -6.382105     0.000272
    2.220000    -6.212983     0.000245
    2.230000    -6.049036     0.000220
    2.240000    -5.890085     0.000198
    2.250000    -5.735958     0.000178
    2.260000    -5.586489     0.000160
    2.270000    -5.441521     0.000143
    2.280000    -5.300900     0.000129
    2.290000    -5.164478     0.000116
    2.300000    -5.032115     0.000104
    2.310000    -4.903674     0.000093
    2.320000    -4.779024     0.000084
    2.330000    -4.658037     0.000075
    2.340000    -4.540594     0.000068
    2.350000    -4.426575     0.000061
    2.360000    -4.315869     0.000055
    2.370000    -4.208366     0.000049
    2.380000    -4.103962     0.000044
    2.390000    -4.002556     0.000039
    2.400000    -3.904049     0.000035
    2.410000    -3.808349     0.000032
    2.420000    -3.715365     0.000029
    2.430000    -3.625009     0.000026
    2.440000    -3.537198     0.000023
    2.450000    -3.451851     0.000021
    2.460000    -3.368888     0.000019
    2.470000    -3.288235     0.000017
    2.480000    -3.209818     0.000015
    2.490000    -3.133568     0.000013
    2.500000    -3.059417     0.000012
    2.510000    -2.987299     0.000011
    2.520000    -2.917151     0.000010
    2.530000    -2.848912     0.000009
    2.540000    -2.782522     0.000008
    2.550000    -2.717927     0.000007
    2.560000    -2.655069     0.000006
    2.570000    -2.593897     0.000006
    2.580000    -2.534358     0.000005
    2.590000    -2.476404     0.000005
    2.600000    -2.419987     0.000004
    2.610000    -2.365060     0.000004
    2.620000    -2.311579     0.000003
    2.630000    -2.259500     0.000003
    2.640000    -2.208783     0.000003
    2.650000    -2.159385     0.000002
    2.660000    -2.111270     0.000002
    2.670000    -2.064397     0.000002
    2.680000    -2.018733     0.000002
    2.690000    -1.974240     0.000002
    2.700000    -1.930884     0.000001
    2.710000    -1.888634     0.000001
    2.720000    -1.847456     0.000001
    2.730000    -1.807320     0.000001
    2.740000    -1.768196     0.000001
    2.750000    -1.730055     0.000001
    2.760000    -1.692868     0.000001
    2.770000    -1.656610     0.000001
    2.780000    -1.621252     0.000001
    2.790000    -1.586771     0.000001
    2.800000    -1.553141     0.000000
    2.810000    -1.520338     0.000000
    2.820000    -1.488340     0.000000
    2.830000    -1.457124     0.000000
    2.840000    -1.426667     0.000000
    2.850000    -1.396950     0.000000
    2.860000    -1.367952     0.000000
    2.870000    -1.339652     0.000000
    2.880000    -1.312032     0.000000
    2.890000    -1.285074     0.000000
    2.900000    -1.258759     0.000000
    2.910000    -1.233069     0.000000
    2.920000    -1.207989     0.000000
    2.930000    -1.183501     0.000000
    2.940000    -1.159589     0.000000
    2.950000    -1.136239     0.000000
    2.960000    -1.113435     0.000000
    2.970000    -1.091162     0.000000
    2.980000    -1.069407     0.000000
    2.990000    -1.048156     0.000000
    3.000000    -1.027395     0.000000

 State            2  Energy k =   -38.320083041729148     
    0.900000  1244.272304    -0.021937
    0.910000  1005.031618    -0.046625
    0.920000   802.993580    -0.076134
    0.930000   632.488543    -0.112013
    0.940000   488.732372    -0.155370
    0.950000   367.682748    -0.206876
    0.960000   265.919803    -0.266741
    0.970000   180.546769    -0.334679
    0.980000   109.107162    -0.409901
    0.990000    49.515610    -0.491129
    1.000000     0.000000    -0.576639
    1.010000   -40.947007    -0.664336
    1.020000   -74.608655    -0.751844
    1.030000  -102.078282    -0.836619
    1.040000  -124.288107    -0.916066
    1.050000  -142.033484    -0.987652
    1.060000  -155.993383    -1.049016
    1.070000  -166.747698    -1.098066
    1.080000  -174.791901    -1.133046
    1.090000  -180.549451    -1.152599
    1.100000  -184.382334    -1.155796
    1.110000  -186.600009    -1.142147
    1.120000  -187.467021    -1.111596
    1.130000  -187.209480    -1.064511
    1.140000  -186.020584    -1.001727
    1.150000  -184.065334    -0.924364
    1.160000  -181.484558    -0.833783
    1.170000  -178.398348    -0.731533
    1.180000  -174.909010    -0.619299
    1.190000  -171.103582    -0.498843
    1.200000  -167.055991    -0.371966
    1.210000  -162.828915    -0.240452
    1.220000  -158.475363    -0.106043
    1.230000  -154.040051     0.029602
    1.240000  -149.560569     0.164928
    1.250000  -145.068392     0.298505
    1.260000  -140.589753     0.429042
    1.270000  -136.146385     0.555394
    1.280000  -131.756165     0.676570
    1.290000  -127.433675     0.791729
    1.300000  -123.190671     0.900180
    1.310000  -119.036502     1.001377
    1.320000  -114.978458     1.094908
    1.330000  -111.022082     1.180488
    1.340000  -107.171431     1.257950
    1.350000  -103.429303     1.327229
    1.360000   -99.797431     1.388355
    1.370000   -96.276656     1.441440
    1.380000   -92.867067     1.486668
    1.390000   -89.568132     1.524282
    1.400000   -86.378798     1.554573
    1.410000   -83.297589     1.577874
    1.420000   -80.322682     1.594550
    1.430000   -77.451978     1.604988
    1.440000   -74.683155     1.609590
    1.450000   -72.013722     1.608769
    1.460000   -69.441060     1.602942
    1.470000   -66.962458     1.592522
    1.480000   -64.575141     1.577921
    1.490000   -62.276300     1.559539
    1.500000   -60.063111     1.537764
    1.510000   -57.932754     1.512973
    1.520000   -55.882427     1.485523
    1.530000   -53.909359     1.455755
    1.540000   -52.010822     1.423993
    1.550000   -50.184137     1.390539
    1.560000   -48.426681     1.355679
    1.570000   -46.735894     1.319676
    1.580000   -45.109282     1.282776
    1.590000   -43.544419     1.245204
    1.600000   -42.038948     1.207167
    1.610000   -40.590589     1.168855
    1.620000   -39.197130     1.130438
    1.630000   -37.856436     1.092073
    1.640000   -36.566443     1.053899
    1.650000   -35.325159     1.016038
    1.660000   -34.130665     0.978602
    1.670000   -32.981110     0.941688
    1.680000   -31.874715     0.905380
    1.690000   -30.809764     0.869750
    1.700000   -29.784611     0.834863
    1.710000   -28.797671     0.800769
    1.720000   -27.847421     0.767514
    1.730000   -26.932400     0.735132
    1.740000   -26.051203     0.703651
    1.750000   -25.202484     0.673093
    1.760000   -24.384948     0.643472
    1.770000   -23.597355     0.614798
    1.780000   -22.838515     0.587076
    1.790000   -22.107286     0.560305
    1.800000   -21.402573     0.534481
    1.810000   -20.723327     0.509598
    1.820000   -20.068540     0.485645
    1.830000   -19.437249     0.462609
    1.840000   -18.828529     0.440474
    1.850000   -18.241492     0.419224
    1.860000   -17.675290     0.398838
    1.870000   -17.129106     0.379298
    1.880000   -16.602162     0.360582
    1.890000   -16.093707     0.342667
    1.900000   -15.603026     0.325530
    1.910000   -15.129430     0.309149
    1.920000   -14.672261     0.293498
    1.930000   -14.230886     0.278555
    1.940000   -13.804699     0.264294
    1.950000   -13.393121     0.250692
    1.960000   -12.995594     0.237725
    1.970000   -12.611584     0.225369
    1.980000   -12.240580     0.213601
    1.990000   -11.882090     0.202398
    2.000000   -11.535645     0.191736
    2.010000   -11.200791     0.181595
    2.020000   -10.877096     0.171953
    2.030000   -10.564144     0.162787
    2.040000   -10.261537     0.154078
    2.050000    -9.968892     0.145807
    2.060000    -9.685842     0.137953
    2.070000    -9.412035     0.130497
    2.080000    -9.147131     0.123423
    2.090000    -8.890808     0.116711
    2.100000    -8.642752     0.110346
    2.110000    -8.402665     0.104312
    2.120000    -8.170259     0.098591
    2.130000    -7.945258     0.093171
    2.140000    -7.727397     0.088035
    2.150000    -7.516421     0.083171
    2.160000    -7.312087     0.078564
    2.170000    -7.114157     0.074203
    2.180000    -6.922407     0.070075
    2.190000    -6.736620     0.066168
    2.200000    -6.556586     0.062472
    2.210000    -6.382105     0.058975
    2.220000    -6.212983     0.055667
    2.230000    -6.049036     0.052539
    2.240000    -5.890085     0.049582
    2.250000    -5.735958     0.046786
    2.260000    -5.586489     0.044143
    2.270000    -5.441521     0.041645
    2.280000    -5.300900     0.039285
    2.290000    -5.164478     0.037055
    2.300000    -5.032115     0.034949
    2.310000    -4.903674     0.032959
    2.320000    -4.779024     0.031080
    2.330000    -4.658037     0.029306
    2.340000    -4.540594     0.027631
    2.350000    -4.426575     0.026049
    2.360000    -4.315869     0.024556
    2.370000    -4.208366     0.023147
    2.380000    -4.103962     0.021817
    2.390000    -4.002556     0.020561
    2.400000    -3.904049     0.019377
    2.410000    -3.808349     0.018260
    2.420000    -3.715365     0.017205
    2.430000    -3.625009     0.016211
    2.440000    -3.537198     0.015272
    2.450000    -3.451851     0.014387
    2.460000    -3.368888     0.013553
    2.470000    -3.288235     0.012766
    2.480000    -3.209818     0.012023
    2.490000    -3.133568     0.011323
    2.500000    -3.059417     0.010663
    2.510000    -2.987299     0.010041
    2.520000    -2.917151     0.009454
    2.530000    -2.848912     0.008901
    2.540000    -2.782522     0.008379
    2.550000    -2.717927     0.007888
    2.560000    -2.655069     0.007424
    2.570000    -2.593897     0.006987
    2.580000    -2.534358     0.006575
    2.590000    -2.476404     0.006186
    2.600000    -2.419987     0.005820
    2.610000    -2.365060     0.005474
    2.620000    -2.311579     0.005149
    2.630000    -2.259500     0.004842
    2.640000    -2.208783     0.004552
    2.650000    -2.159385     0.004279
    2.660000    -2.111270     0.004021
    2.670000    -2.064397     0.003778
    2.680000    -2.018733     0.003549
    2.690000    -1.974240     0.003332
    2.700000    -1.930884     0.003128
    2.710000    -1.888634     0.002935
    2.720000    -1.847456     0.002753
    2.730000    -1.807320     0.002581
    2.740000    -1.768196     0.002418
    2.750000    -1.730055     0.002264
    2.760000    -1.692868     0.002119
    2.770000    -1.656610     0.001981
    2.780000    -1.621252     0.001850
    2.790000    -1.586771     0.001727
    2.800000    -1.553141     0.001609
    2.810000    -1.520338     0.001498
    2.820000    -1.488340     0.001392
    2.830000    -1.457124     0.001291
    2.840000    -1.426667     0.001195
    2.850000    -1.396950     0.001104
    2.860000    -1.367952     0.001016
    2.870000    -1.339652     0.000932
    2.880000    -1.312032     0.000852
    2.890000    -1.285074     0.000775
    2.900000    -1.258759     0.000701
    2.910000    -1.233069     0.000629
    2.920000    -1.207989     0.000559
    2.930000    -1.183501     0.000492
    2.940000    -1.159589     0.000427
    2.950000    -1.136239     0.000363
    2.960000    -1.113435     0.000300
    2.970000    -1.091162     0.000239
    2.980000    -1.069407     0.000178
    2.990000    -1.048156     0.000119
    3.000000    -1.027395     0.000059

 State            3  Energy k =   -5.4884424167281276     
    0.900000  1244.272304     0.013876
    0.910000  1005.031618     0.029445
    0.920000   802.993580     0.047961
    0.930000   632.488543     0.070330
    0.940000   488.732372     0.097162
    0.950000   367.682748     0.128770
    0.960000   265.919803     0.165156
    0.970000   180.546769     0.205997
    0.980000   109.107162     0.250644
    0.990000    49.515610     0.298141
    1.000000     0.000000     0.347260
    1.010000   -40.947007     0.396557
    1.020000   -74.608655     0.444442
    1.030000  -102.078282     0.489256
    1.040000  -124.288107     0.529352
    1.050000  -142.033484     0.563173
    1.060000  -155.993383     0.589323
    1.070000  -166.747698     0.606625
    1.080000  -174.791901     0.614170
    1.090000  -180.549451     0.611342
    1.100000  -184.382334     0.597838
    1.110000  -186.600009     0.573664
    1.120000  -187.467021     0.539123
    1.130000  -187.209480     0.494797
    1.140000  -186.020584     0.441554
    1.150000  -184.065334     0.380437
    1.160000  -181.484558     0.312633
    1.170000  -178.398348     0.239429
    1.180000  -174.909010     0.162170
    1.190000  -171.103582     0.082223
    1.200000  -167.055991     0.000945
    1.210000  -162.828915    -0.080354
    1.220000  -158.475363    -0.160431
    1.230000  -154.040051    -0.238133
    1.240000  -149.560569    -0.312415
    1.250000  -145.068392    -0.382347
    1.260000  -140.589753    -0.447123
    1.270000  -136.146385    -0.506068
    1.280000  -131.756165    -0.558634
    1.290000  -127.433675    -0.604398
    1.300000  -123.190671    -0.643057
    1.310000  -119.036502    -0.674423
    1.320000  -114.978458    -0.698413
    1.330000  -111.022082    -0.715039
    1.340000  -107.171431    -0.724401
    1.350000  -103.429303    -0.726674
    1.360000   -99.797431    -0.722098
    1.370000   -96.276656    -0.710970
    1.380000   -92.867067    -0.693633
    1.390000   -89.568132    -0.670466
    1.400000   -86.378798    -0.641878
    1.410000   -83.297589    -0.608296
    1.420000   -80.322682    -0.570162
    1.430000   -77.451978    -0.527926
    1.440000   -74.683155    -0.482036
    1.450000   -72.013722    -0.432939
    1.460000   -69.441060    -0.381072
    1.470000   -66.962458    -0.326862
    1.480000   -64.575141    -0.270718
    1.490000   -62.276300    -0.213036
    1.500000   -60.063111    -0.154189
    1.510000   -57.932754    -0.094532
    1.520000   -55.882427    -0.034396
    1.530000   -53.909359     0.025908
    1.540000   -52.010822     0.086093
    1.550000   -50.184137     0.145896
    1.560000   -48.426681     0.205073
    1.570000   -46.735894     0.263407
    1.580000   -45.109282     0.320699
    1.590000   -43.544419     0.376772
    1.600000   -42.038948     0.431470
    1.610000   -40.590589     0.484654
    1.620000   -39.197130     0.536206
    1.630000   -37.856436     0.586024
    1.640000   -36.566443     0.634022
    1.650000   -35.325159     0.680130
    1.660000   -34.130665     0.724290
    1.670000   -32.981110     0.766461
    1.680000   -31.874715     0.806609
    1.690000   -30.809764     0.844717
    1.700000   -29.784611     0.880772
    1.710000   -28.797671     0.914776
    1.720000   -27.847421     0.946734
    1.730000   -26.932400     0.976663
    1.740000   -26.051203     1.004584
    1.750000   -25.202484     1.030526
