 State            1  Energy k =   -170.07916932801749     
    0.900000  1659.029738     0.015357
    0.910000  1340.042158     0.033476
    0.920000  1070.658107     0.056627
    0.930000   843.318058     0.086787
    0.940000   651.643162     0.125723
    0.950000   490.243664     0.174963
    0.960000   354.559737     0.235723
    0.970000   240.729025     0.308808
    0.980000   145.476215     0.394533
    0.990000    66.020814     0.492660
    1.000000     0.000000     0.602370
    1.010000   -54.596010     0.722283
    1.020000   -99.478207     0.850501
    1.030000  -136.104376     0.984696
    1.040000  -165.717476     1.122221
    1.050000  -189.377978     1.260230
    1.060000  -207.991177     1.395811
    1.070000  -222.330265     1.526116
    1.080000  -233.055868     1.648469
    1.090000  -240.732602     1.760471
    1.100000  -245.843112     1.860067
    1.110000  -248.800012     1.945607
    1.120000  -249.956028     2.015867
    1.130000  -249.612640     2.070093
    1.140000  -248.027445     2.108213
    1.150000  -245.420446     2.130476
    1.160000  -241.979410     2.137442
    1.170000  -237.864464     2.129938
    1.180000  -233.212014     2.109000
    1.190000  -228.138109     2.075826
    1.200000  -222.741322     2.031726
    1.210000  -217.105220     1.978074
    1.220000  -211.300485     1.916267
    1.230000  -205.386735     1.847690
    1.240000  -199.414092     1.773688
    1.250000  -193.424523     1.695538
    1.260000  -187.453004     1.614434
    1.270000  -181.528513     1.531472
    1.280000  -175.674887     1.447645
    1.290000  -169.911567     1.363832
    1.300000  -164.254229     1.280805
    1.310000  -158.715336     1.199225
    1.320000  -153.304610     1.119648
    1.330000  -148.029443     1.042532
    1.340000  -142.895242     0.968243
    1.350000  -137.905737     0.897063
    1.360000  -133.063241     0.829198
    1.370000  -128.368874     0.764787
    1.380000  -123.822756     0.703909
    1.390000  -119.424176     0.646593
    1.400000  -115.171731     0.592824
    1.410000  -111.063452     0.542551
    1.420000  -107.096910     0.495694
    1.430000  -103.269304     0.452147
    1.440000   -99.577540     0.411786
    1.450000   -96.018296     0.374474
    1.460000   -92.588080     0.340063
    1.470000   -89.283277     0.308400
    1.480000   -86.100188     0.279327
    1.490000   -83.035067     0.252685
    1.500000   -80.084149     0.228317
    1.510000   -77.243672     0.206069
    1.520000   -74.509902     0.185791
    1.530000   -71.879145     0.167338
    1.540000   -69.347762     0.150572
    1.550000   -66.912182     0.135359
    1.560000   -64.568908     0.121575
    1.570000   -62.314526     0.109102
    1.580000   -60.145710     0.097828
    1.590000   -58.059225     0.087652
    1.600000   -56.051931     0.078475
    1.610000   -54.120785     0.070209
    1.620000   -52.262840     0.062770
    1.630000   -50.475248     0.056083
    1.640000   -48.755257     0.050077
    1.650000   -47.100212     0.044687
    1.660000   -45.507553     0.039854
    1.670000   -43.974814     0.035524
    1.680000   -42.499620     0.031647
    1.690000   -41.079686     0.028180
    1.700000   -39.712815     0.025079
    1.710000   -38.396894     0.022310
    1.720000   -37.129895     0.019837
    1.730000   -35.909866     0.017631
    1.740000   -34.734938     0.015663
    1.750000   -33.603312     0.013910
    1.760000   -32.513264     0.012348
    1.770000   -31.463140     0.010957
    1.780000   -30.451353     0.009720
    1.790000   -29.476381     0.008619
    1.800000   -28.536764     0.007640
    1.810000   -27.631102     0.006771
    1.820000   -26.758054     0.005998
    1.830000   -25.916333     0.005312
    1.840000   -25.104705     0.004704
    1.850000   -24.321990     0.004163
    1.860000   -23.567053     0.003684
    1.870000   -22.838808     0.003259
    1.880000   -22.136216     0.002883
    1.890000   -21.458277     0.002549
    1.900000   -20.804035     0.002254
    1.910000   -20.172574     0.001992
    1.920000   -19.563014     0.001760
    1.930000   -18.974514     0.001555
    1.940000   -18.406266     0.001374
    1.950000   -17.857495     0.001213
    1.960000   -17.327459     0.001071
    1.970000   -16.815446     0.000946
    1.980000   -16.320773     0.000835
    1.990000   -15.842787     0.000737
    2.000000   -15.380859     0.000650
    2.010000   -14.934388     0.000574
    2.020000   -14.502794     0.000506
    2.030000   -14.085526     0.000446
    2.040000   -13.682050     0.000394
    2.050000   -13.291856     0.000347
    2.060000   -12.914456     0.000306
    2.070000   -12.549379     0.000270
    2.080000   -12.196175     0.000238
    2.090000   -11.854410     0.000210
    2.100000   -11.523669     0.000185
    2.110000   -11.203553     0.000163
    2.120000   -10.893678     0.000143
    2.130000   -10.593677     0.000126
    2.140000   -10.303196     0.000111
    2.150000   -10.021895     0.000098
    2.160000    -9.749449     0.000086
    2.170000    -9.485543     0.000076
    2.180000    -9.229877     0.000067
    2.190000    -8.982160     0.000059
    2.200000    -8.742114     0.000052
    2.210000    -8.509473     0.000046
    2.220000    -8.283978     0.000040
    2.230000    -8.065382     0.000035
    2.240000    -7.853446     0.000031
    2.250000    -7.647943     0.000027
    2.260000    -7.448652     0.000024
    2.270000    -7.255361     0.000021
    2.280000    -7.067866     0.000019
    2.290000    -6.885971     0.000016
    2.300000    -6.709487     0.000014
    2.310000    -6.538232     0.000013
    2.320000    -6.372032     0.000011
    2.330000    -6.210717     0.000010
    2.340000    -6.054125     0.000009
    2.350000    -5.902100     0.000008
    2.360000    -5.754492     0.000007
    2.370000    -5.611155     0.000006
    2.380000    -5.471949     0.000005
    2.390000    -5.336741     0.000005
    2.400000    -5.205399     0.000004
    2.410000    -5.077799     0.000004
    2.420000    -4.953820     0.000003
    2.430000    -4.833346     0.000003
    2.440000    -4.716264     0.000002
    2.450000    -4.602467     0.000002
    2.460000    -4.491851     0.000002
    2.470000    -4.384313     0.000002
    2.480000    -4.279758     0.000001
    2.490000    -4.178091     0.000001
    2.500000    -4.079223     0.000001
    2.510000    -3.983065     0.000001
    2.520000    -3.889534     0.000001
    2.530000    -3.798549     0.000001
    2.540000    -3.710030     0.000001
    2.550000    -3.623902     0.000001
    2.560000    -3.540092     0.000001
    2.570000    -3.458529     0.000000
    2.580000    -3.379144     0.000000
    2.590000    -3.301872     0.000000
    2.600000    -3.226649     0.000000
    2.610000    -3.153413     0.000000
    2.620000    -3.082105     0.000000
    2.630000    -3.012667     0.000000
    2.640000    -2.945044     0.000000
    2.650000    -2.879181     0.000000
    2.660000    -2.815026     0.000000
    2.670000    -2.752530     0.000000
    2.680000    -2.691643     0.000000
    2.690000    -2.632319     0.000000
    2.700000    -2.574512     0.000000
    2.710000    -2.518178     0.000000
    2.720000    -2.463275     0.000000
    2.730000    -2.409760     0.000000
    2.740000    -2.357594     0.000000
    2.750000    -2.306739     0.000000
    2.760000    -2.257158     0.000000
    2.770000    -2.208813     0.000000
    2.780000    -2.161670     0.000000
    2.790000    -2.115695     0.000000
    2.800000    -2.070855     0.000000
    2.810000    -2.027118     0.000000
    2.820000    -1.984454     0.000000
    2.830000    -1.942832     0.000000
    2.840000    -1.902223     0.000000
    2.850000    -1.862600     0.000000
    2.860000    -1.823936     0.000000
    2.870000    -1.786203     0.000000
    2.880000    -1.749377     0.000000
    2.890000    -1.713432     0.000000
    2.900000    -1.678345     0.000000
    2.910000    -1.644093     0.000000
    2.920000    -1.610652     0.000000
    2.930000    -1.578001     0.000000
    2.940000    -1.546119     0.000000
    2.950000    -1.514985     0.000000
    2.960000    -1.484580     0.000000
    2.970000    -1.454883     0.000000
    2.980000    -1.425876     0.000000
    2.990000    -1.397541     0.000000
    3.000000    -1.369860     0.000000

 State            2  Energy k =   -66.968685090353631     
    0.900000  1659.029738    -0.017985
    0.910000  1340.042158    -0.039014
    0.920000  1070.658107    -0.065498
    0.930000   843.318058    -0.099402
    0.940000   651.643162    -0.142320
    0.950000   490.243664    -0.195422
    0.960000   354.559737    -0.259362
    0.970000   240.729025    -0.334177
    0.980000   145.476215    -0.419213
    0.990000    66.020814    -0.513097
    1.000000     0.000000    -0.613752
    1.010000   -54.596010    -0.718475
    1.020000   -99.478207    -0.824058
    1.030000  -136.104376    -0.926949
    1.040000  -165.717476    -1.023433
    1.050000  -189.377978    -1.109830
    1.060000  -207.991177    -1.182673
    1.070000  -222.330265    -1.238882
    1.080000  -233.055868    -1.275895
    1.090000  -240.732602    -1.291775
    1.100000  -245.843112    -1.285268
    1.110000  -248.800012    -1.255828
    1.120000  -249.956028    -1.203609
    1.130000  -249.612640    -1.129432
    1.140000  -248.027445    -1.034843
    1.150000  -245.420446    -0.921817
    1.160000  -241.979410    -0.792679
    1.170000  -237.864464    -0.650007
    1.180000  -233.212014    -0.496535
    1.190000  -228.138109    -0.335058
    1.200000  -222.741322    -0.168355
    1.210000  -217.105220     0.000889
    1.220000  -211.300485     0.170137
    1.230000  -205.386735     0.337049
    1.240000  -199.414092     0.499518
    1.250000  -193.424523     0.655693
    1.260000  -187.453004     0.803991
    1.270000  -181.528513     0.943101
    1.280000  -175.674887     1.071980
    1.290000  -169.911567     1.189844
    1.300000  -164.254229     1.296151
    1.310000  -158.715336     1.390583
    1.320000  -153.304610     1.473025
    1.330000  -148.029443     1.543539
    1.340000  -142.895242     1.602344
    1.350000  -137.905737     1.649792
    1.360000  -133.063241     1.686344
    1.370000  -128.368874     1.712546
    1.380000  -123.822756     1.729016
    1.390000  -119.424176     1.736420
    1.400000  -115.171731     1.735454
    1.410000  -111.063452     1.726837
    1.420000  -107.096910     1.711290
    1.430000  -103.269304     1.689529
    1.440000   -99.577540     1.662258
    1.450000   -96.018296     1.630155
    1.460000   -92.588080     1.593873
    1.470000   -89.283277     1.554031
    1.480000   -86.100188     1.511213
    1.490000   -83.035067     1.465964
    1.500000   -80.084149     1.418789
    1.510000   -77.243672     1.370152
    1.520000   -74.509902     1.320479
    1.530000   -71.879145     1.270154
    1.540000   -69.347762     1.219524
    1.550000   -66.912182     1.168898
    1.560000   -64.568908     1.118550
    1.570000   -62.314526     1.068720
    1.580000   -60.145710     1.019616
    1.590000   -58.059225     0.971419
    1.600000   -56.051931     0.924280
    1.610000   -54.120785     0.878326
    1.620000   -52.262840     0.833663
    1.630000   -50.475248     0.790373
    1.640000   -48.755257     0.748521
    1.650000   -47.100212     0.708155
    1.660000   -45.507553     0.669307
    1.670000   -43.974814     0.631998
    1.680000   -42.499620     0.596234
    1.690000   -41.079686     0.562013
    1.700000   -39.712815     0.529324
    1.710000   -38.396894     0.498146
    1.720000   -37.129895     0.468454
    1.730000   -35.909866     0.440216
    1.740000   -34.734938     0.413398
    1.750000   -33.603312     0.387958
    1.760000   -32.513264     0.363855
    1.770000   -31.463140     0.341044
    1.780000   -30.451353     0.319478
    1.790000   -29.476381     0.299109
    1.800000   -28.536764     0.279891
    1.810000   -27.631102     0.261773
    1.820000   -26.758054     0.244708
    1.830000   -25.916333     0.228647
    1.840000   -25.104705     0.213544
    1.850000   -24.321990     0.199352
    1.860000   -23.567053     0.186025
    1.870000   -22.838808     0.173518
    1.880000   -22.136216     0.161790
    1.890000   -21.458277     0.150799
    1.900000   -20.804035     0.140504
    1.910000   -20.172574     0.130866
    1.920000   -19.563014     0.121849
    1.930000   -18.974514     0.113417
    1.940000   -18.406266     0.105535
    1.950000   -17.857495     0.098172
    1.960000   -17.327459     0.091297
    1.970000   -16.815446     0.084879
    1.980000   -16.320773     0.078892
    1.990000   -15.842787     0.073308
    2.000000   -15.380859     0.068102
    2.010000   -14.934388     0.063251
    2.020000   -14.502794     0.058732
    2.030000   -14.085526     0.054523
    2.040000   -13.682050     0.050606
    2.050000   -13.291856     0.046959
    2.060000   -12.914456     0.043567
    2.070000   -12.549379     0.040412
    2.080000   -12.196175     0.037478
    2.090000   -11.854410     0.034751
    2.100000   -11.523669     0.032217
    2.110000   -11.203553     0.029863
    2.120000   -10.893678     0.027676
    2.130000   -10.593677     0.025645
    2.140000   -10.303196     0.023759
    2.150000   -10.021895     0.022009
    2.160000    -9.749449     0.020385
    2.170000    -9.485543     0.018878
    2.180000    -9.229877     0.017480
    2.190000    -8.982160     0.016183
    2.200000    -8.742114     0.014981
    2.210000    -8.509473     0.013866
    2.220000    -8.283978     0.012833
    2.230000    -8.065382     0.011875
    2.240000    -7.853446     0.010988
    2.250000    -7.647943     0.010166
    2.260000    -7.448652     0.009404
    2.270000    -7.255361     0.008699
    2.280000    -7.067866     0.008045
    2.290000    -6.885971     0.007440
    2.300000    -6.709487     0.006880
    2.310000    -6.538232     0.006361
    2.320000    -6.372032     0.005881
    2.330000    -6.210717     0.005437
    2.340000    -6.054125     0.005026
    2.350000    -5.902100     0.004646
    2.360000    -5.754492     0.004294
    2.370000    -5.611155     0.003968
    2.380000    -5.471949     0.003667
    2.390000    -5.336741     0.003389
    2.400000    -5.205399     0.003131
    2.410000    -5.077799     0.002893
    2.420000    -4.953820     0.002672
    2.430000    -4.833346     0.002469
    2.440000    -4.716264     0.002280
    2.450000    -4.602467     0.002106
    2.460000    -4.491851     0.001945
    2.470000    -4.384313     0.001797
    2.480000    -4.279758     0.001659
    2.490000    -4.178091     0.001532
    2.500000    -4.079223     0.001415
    2.510000    -3.983065     0.001306
    2.520000    -3.889534     0.001206
    2.530000    -3.798549     0.001114
    2.540000    -3.710030     0.001028
    2.550000    -3.623902     0.000949
    2.560000    -3.540092     0.000876
    2.570000    -3.458529     0.000809
    2.580000    -3.379144     0.000746
    2.590000    -3.301872     0.000689
    2.600000    -3.226649     0.000636
    2.610000    -3.153413     0.000587
    2.620000    -3.082105     0.000541
    2.630000    -3.012667     0.000499
    2.640000    -2.945044     0.000461
    2.650000    -2.879181     0.000425
    2.660000    -2.815026     0.000392
    2.670000    -2.752530     0.000361
    2.680000    -2.691643     0.000333
    2.690000    -2.632319     0.000307
    2.700000    -2.574512     0.000283
    2.710000    -2.518178     0.000261
    2.720000    -2.463275     0.000240
    2.730000    -2.409760     0.000222
    2.740000    -2.357594     0.000204
    2.750000    -2.306739     0.000188
    2.760000    -2.257158     0.000173
    2.770000    -2.208813     0.000159
    2.780000    -2.161670     0.000146
    2.790000    -2.115695     0.000134
    2.800000    -2.070855     0.000123
    2.810000    -2.027118     0.000113
    2.820000    -1.984454     0.000103
    2.830000    -1.942832     0.000094
    2.840000    -1.902223     0.000086
    2.850000    -1.862600     0.000079
    2.860000    -1.823936     0.000071
    2.870000    -1.786203     0.000065
    2.880000    -1.749377     0.000059
    2.890000    -1.713432     0.000053
    2.900000    -1.678345     0.000047
    2.910000    -1.644093     0.000042
    2.920000    -1.610652     0.000037
    2.930000    -1.578001     0.000032
    2.940000    -1.546119     0.000028
    2.950000    -1.514985     0.000024
    2.960000    -1.484580     0.000019
    2.970000    -1.454883     0.000015
    2.980000    -1.425876     0.000011
    2.990000    -1.397541     0.000008
    3.000000    -1.369860     0.000004

 State            3  Energy k =   -16.710188996606089     
    0.900000  1659.029738     0.013759
    0.910000  1340.042158     0.029775
    0.920000  1070.658107     0.049802
    0.930000   843.318058     0.075217
    0.940000   651.643162     0.107070
    0.950000   490.243664     0.146042
    0.960000   354.559737     0.192376
    0.970000   240.729025     0.245806
    0.980000   145.476215     0.305518
    0.990000    66.020814     0.370141
    1.000000     0.000000     0.437790
    1.010000   -54.596010     0.506144
    1.020000   -99.478207     0.572566
    1.030000  -136.104376     0.634249
    1.040000  -165.717476     0.688371
    1.050000  -189.377978     0.732260
    1.060000  -207.991177     0.763541
    1.070000  -222.330265     0.780261
    1.080000  -233.055868     0.780986
    1.090000  -240.732602     0.764866
    1.100000  -245.843112     0.731661
    1.110000  -248.800012     0.681740
    1.120000  -249.956028     0.616039
    1.130000  -249.612640     0.536014
    1.140000  -248.027445     0.443615
    1.150000  -245.420446     0.341088
    1.160000  -241.979410     0.230887
    1.170000  -237.864464     0.115582
    1.180000  -233.212014    -0.002230
    1.190000  -228.138109    -0.120006
    1.200000  -222.741322    -0.235324
    1.210000  -217.105220    -0.345945
    1.220000  -211.300485    -0.449856
    1.230000  -205.386735    -0.545302
    1.240000  -199.414092    -0.630810
    1.250000  -193.424523    -0.705195
    1.260000  -187.453004    -0.767563
    1.270000  -181.528513    -0.817303
    1.280000  -175.674887    -0.854070
    1.290000  -169.911567    -0.877773
    1.300000  -164.254229    -0.888541
    1.310000  -158.715336    -0.886705
    1.320000  -153.304610    -0.872770
    1.330000  -148.029443    -0.847383
    1.340000  -142.895242    -0.811312
    1.350000  -137.905737    -0.765413
    1.360000  -133.063241    -0.710612
    1.370000  -128.368874    -0.647878
    1.380000  -123.822756    -0.578206
    1.390000  -119.424176    -0.502593
    1.400000  -115.171731    -0.422030
    1.410000  -111.063452    -0.337482
    1.420000  -107.096910    -0.249880
    1.430000  -103.269304    -0.160110
    1.440000   -99.577540    -0.069010
    1.450000   -96.018296     0.022644
    1.460000   -92.588080     0.114130
    1.470000   -89.283277     0.204794
    1.480000   -86.100188     0.294042
    1.490000   -83.035067     0.381344
    1.500000   -80.084149     0.466236
    1.510000   -77.243672     0.548309
    1.520000   -74.509902     0.627219
    1.530000   -71.879145     0.702672
    1.540000   -69.347762     0.774431
    1.550000   -66.912182     0.842305
    1.560000   -64.568908     0.906152
    1.570000   -62.314526     0.965870
    1.580000   -60.145710     1.021396
    1.590000   -58.059225     1.072700
    1.600000   -56.051931     1.119787
    1.610000   -54.120785     1.162687
    1.620000   -52.262840     1.201455
    1.630000   -50.475248     1.236167
    1.640000   -48.755257     1.266920
    1.650000   -47.100212     1.293823
    1.660000   -45.507553     1.317002
    1.670000   -43.974814     1.336590
    1.680000   -42.499620     1.352732
    1.690000   -41.079686     1.365578
    1.700000   -39.712815     1.375283
    1.710000   -38.396894     1.382006
    1.720000   -37.129895     1.385907
    1.730000   -35.909866     1.387146
    1.740000   -34.734938     1.385886
    1.750000   -33.603312     1.382284
