 # k_line =    100.00000000000000     
 # r_min, r_max =   0.90000000000000002        2.5000000000000000     
 # delta_k =    1.0000000000000000E-002
 # delta_r =    1.0000000000000000E-003
 # tolerance =    1.0000000000000001E-005
 # number_of_states =            3
 # Energy level            1 :   -5.2573828124856803     
 # r, V(r), psi(r)
  0.90000000000000002        165.90297383132310        5.7632529309284289E-003
  0.90100000000000002        162.46553886015732        1.1527489019987430E-002
  0.90200000000000002        159.08557413022550        1.7293655340068253E-002
  0.90300000000000002        155.76213045568551        2.3062660649072388E-002
  0.90400000000000003        152.49427486575877        2.8835376483311422E-002
  0.90500000000000003        149.28109031423523        3.4612638218138252E-002
  0.90600000000000003        146.12167539445113        4.0395246091745135E-002
  0.90700000000000003        143.01514405964764        4.6183966193745651E-002
  0.90800000000000003        139.96062534857998        5.1979531420080556E-002
  0.90900000000000003        136.95726311629778        5.7782642395713568E-002
  0.91000000000000003        134.00421576997300        6.3593968366513612E-002
  0.91100000000000003        131.10065600969511        6.9414148061653205E-002
  0.91200000000000003        128.24577057411449        7.5243790527789886E-002
  0.91300000000000003        125.43875999085753        8.1083475936237256E-002
  0.91400000000000003        122.67883833160536        8.6933756364275194E-002
  0.91500000000000004        119.96523297175683        9.2795156551694499E-002
  0.91600000000000004        117.29718435457035        9.8668174633619640E-002
  0.91700000000000004        114.67394575971190       0.10455328285060381     
  0.91800000000000004        112.09478307611150       0.11045092823694438     
  0.91900000000000004        109.55897457905117       0.11636153328812181     
  0.92000000000000004        107.06581071139496       0.12228549660822258     
  0.92100000000000004        104.61459386888643       0.12822319353816752     
  0.92200000000000004        102.20463818942775       0.13417497676552717     
  0.92300000000000004        99.835269346267935       0.14014117691667013     
  0.92400000000000004        97.505824345021480       0.14612210313195589     
  0.92500000000000004        95.215651324441538       0.15211804362464942     
  0.92600000000000005        92.964109360878084       0.15812926622420448     
  0.92700000000000005        90.750568276345135       0.16415601890453219     
  0.92800000000000005        88.574408450129908       0.17019853029784257     
  0.92900000000000005        86.435020633876093       0.17625701019461998     
  0.93000000000000005        84.331805770068200       0.18233165003026719     
  0.93100000000000005        82.264174813858745       0.18842262335892845     
  0.93200000000000005        80.231548558166253       0.19453008631497823     
  0.93300000000000005        78.233357461989101       0.20065417806263963     
  0.93400000000000005        76.269041481861251       0.20679502123417587     
  0.93500000000000005        74.338049906404464       0.21295272235707721     
  0.93600000000000005        72.439841193902296       0.21912737227064683     
  0.93700000000000006        70.573882812848424       0.22531904653237020     
  0.93800000000000006        68.739651085407331       0.23152780581443563     
  0.93900000000000006        66.936631033731359       0.23775369629075610     
  0.94000000000000006        65.164316229081322       0.24399675001482751     
  0.94100000000000006        63.422208643695612       0.25025698528874213     
  0.94200000000000006        61.709818505354043       0.25653440702366198     
  0.94300000000000006        60.026664154587280       0.26282900709204460     
  0.94400000000000006        58.372271904480669       0.26914076467189724     
  0.94500000000000006        56.746175903020287       0.27546964658332590     
  0.94600000000000006        55.147917997936617       0.28181560761763297     
  0.94700000000000006        53.577047603994728       0.28817859085920416     
  0.94800000000000006        52.033121572687961       0.29455852800041754     
  0.94900000000000007        50.515704064285003       0.30095533964979398     
  0.95000000000000007        49.024366422190234       0.30736893563360129     
  0.95100000000000007        47.558687049569428       0.31379921529111254     
  0.95200000000000007        46.118251288200462       0.32024606776371223     
  0.95300000000000007        44.702651299506172       0.32670937227803332     
  0.95400000000000007        43.311485947726666       0.33318899842330213     
  0.95500000000000007        41.944360685193956       0.33968480642305887     
  0.95600000000000007        40.600887439663438       0.34619664740141409     
  0.95700000000000007        39.280684503671857       0.35272436364399629     
  0.95800000000000007        37.983376425873907       0.35926778885373661     
  0.95900000000000007        36.708593904328481       0.36582674840163160     
  0.96000000000000008        35.455973681691667       0.37240105957261949     
  0.96100000000000008        34.225158442285199       0.37899053180669778     
  0.96200000000000008        33.015796711002189       0.38559496693540618     
  0.96300000000000008        31.827542754017646       0.39221415941379306     
  0.96400000000000008        30.660056481266530       0.39884789654797875     
  0.96500000000000008        29.513003350663226       0.40549595871842242     
  0.96600000000000008        28.386054274019855       0.41215811959899967     
  0.96700000000000008        27.278885524641350       0.41883414637198613     
  0.96800000000000008        26.191178646559688       0.42552379993904699     
  0.96900000000000008        25.122620365378978       0.43222683512832005     
  0.97000000000000008        24.072902500701776       0.43894300089768273     
  0.97100000000000009        23.041721880105783       0.44567204053428566     
  0.97200000000000009        22.028780254643365       0.45241369185043528     
  0.97300000000000009        21.033784215834217       0.45916768737590086     
  0.97400000000000009        20.056445114125630       0.46593375454672364     
  0.97500000000000009        19.096478978790564       0.47271161589059651     
  0.97600000000000009        18.153606439238668       0.47950098920888584     
  0.97700000000000009        17.227552647712852       0.48630158775536020     
  0.97800000000000009        16.318047203347575       0.49311312041169064     
  0.97900000000000009        15.424824077561583       0.49993529185978325     
  0.98000000000000009        14.547621540761103       0.50676780275100419     
  0.98100000000000009        13.686182090331233       0.51361034987235266     
  0.98200000000000010        12.840252379887884       0.52046262630963924     
  0.98300000000000010        12.009583149771208       0.52732432160772014     
  0.98400000000000010        11.193929158755257       0.53419512192784024     
  0.98500000000000010        10.393049116951225       0.54107471020213327     
  0.98600000000000010        9.6067056198842806       0.54796276628532870     
  0.98700000000000010        8.8346650837215712       0.55485896710370919     
  0.98800000000000010        8.0766976816281755       0.56176298680136472     
  0.98900000000000010        7.3325772812345313       0.56867449688378757     
  0.99000000000000010        6.6020813831918268       0.57559316635884816     
  0.99100000000000010        5.8849910607960521       0.58251866187519363     
  0.99200000000000010        5.1810909006619221       0.58945064785810808     
  0.99300000000000010        4.4901689444273085       0.59638878664287354     
  0.99400000000000011        3.8120166314688841       0.60333273860566772     
  0.99500000000000011        3.1464287426109072       0.61028216229203636     
  0.99600000000000011        2.4932033448095581       0.61723671454297246     
  0.99700000000000011        1.8521417367941551       0.62419605061864103     
  0.99800000000000011        1.2230483956477523       0.63115982431977724     
  0.99900000000000011       0.60573092431264186       0.63812768810679577     
   1.0000000000000000        0.0000000000000000       0.64509929321663928     
   1.0009999999999999      -0.59433067651033511       0.65207428977739845     
   1.0019999999999998       -1.1774444306952625       0.65905232692073412     
   1.0029999999999997       -1.7495216632568034       0.66603305289213011     
   1.0039999999999996       -2.3107398982485372       0.67301611515900561     
   1.0049999999999994       -2.8612738303736229       0.68000116051671688     
   1.0059999999999993       -3.4012953714716243       0.68698783519247364     
   1.0069999999999992       -3.9309736962071962       0.69397578494719936     
   1.0079999999999991       -4.4504752869753865       0.70096465517536044     
   1.0089999999999990       -4.9599639780381182       0.70795409100279150     
   1.0099999999999989       -5.4596009989047563       0.71494373738254247     
   1.0109999999999988       -5.9495450169715021       0.72193323918876984     
   1.0119999999999987       -6.4299521794314529       0.72892224130870220     
   1.0129999999999986       -6.9009761544699071       0.73591038873269876     
   1.0139999999999985       -7.3627681717563620       0.74289732664242869     
   1.0149999999999983       -7.8154770622469005       0.74988270049719274     
   1.0159999999999982       -8.2592492973083473       0.75686615611841135     
   1.0169999999999981       -8.6942290271771476       0.76384733977230157     
   1.0179999999999980       -9.1205581187641336       0.77082589825076653     
   1.0189999999999979       -9.5383761928170330       0.77780147895051688     
   1.0199999999999978       -9.9478206604526989       0.78477372995045014     
   1.0209999999999977       -10.349026759069158       0.79174230008730651     
   1.0219999999999976       -10.742127587649829       0.79870683902962447     
   1.0229999999999975       -11.127254141469333       0.80566699735001579     
   1.0239999999999974       -11.504535346212940       0.81262242659578210     
   1.0249999999999972       -11.874098091518615       0.81957277935789419     
   1.0259999999999971       -12.236067263952933       0.82651770933835167     
   1.0269999999999970       -12.590565779430463       0.83345687141594771     
   1.0279999999999969       -12.937714615086648       0.84038992171045535     
   1.0289999999999968       -13.277632840613263       0.84731651764525628     
   1.0299999999999967       -13.610437649067030       0.85423631800843269     
   1.0309999999999966       -13.936244387159347       0.86114898301234077     
   1.0319999999999965       -14.255166585037426       0.86805417435168553     
   1.0329999999999964       -14.567315985564999       0.87495155526011659     
   1.0339999999999963       -14.872802573112020       0.88184079056536258     
   1.0349999999999961       -15.171734601861264       0.88872154674292536     
   1.0359999999999960       -15.464218623641045       0.89559349196834959     
   1.0369999999999959       -15.750359515291956       0.90245629616808942     
   1.0379999999999958       -16.030260505575612       0.90930963106898943     
   1.0389999999999957       -16.304023201633999       0.91615317024639675     
   1.0399999999999956       -16.571747615006881       0.92298658917092491     
   1.0409999999999955       -16.833532187214871       0.92980956525388581     
   1.0419999999999954       -17.089473814916168       0.93662177789140799     
   1.0429999999999953       -17.339667874644071       0.94342290850725996     
   1.0439999999999952       -17.584208247132814       0.95021264059439481     
   1.0449999999999950       -17.823187341238455       0.95699065975523445     
   1.0459999999999949       -18.056696117462511       0.96375665374070973     
   1.0469999999999948       -18.284824111084763       0.97051031248807673     
   1.0479999999999947       -18.507659454912172       0.97725132815752180     
   1.0489999999999946       -18.725288901650583       0.98397939516757638     
   1.0499999999999945       -18.937797845905678       0.99069421022935689     
   1.0509999999999944       -19.145270345819721       0.99739547237964521     
   1.0519999999999943       -19.347789144350468        1.0040828830128297     
   1.0529999999999942       -19.545435690198008        1.0107561459117200     
   1.0539999999999941       -19.738290158386253        1.0174149672772539     
   1.0549999999999939       -19.926431470504426        1.0240590557571121     
   1.0559999999999938       -20.109937314614967        1.0306881224732571     
   1.0569999999999937       -20.288884164833053        1.0373018810484120     
   1.0579999999999936       -20.463347300583990        1.0439000476314964     
   1.0589999999999935       -20.633400825543490        1.0504823409220345     
   1.0599999999999934       -20.799117686266495        1.0570484821935495     
   1.0609999999999933       -20.960569690510088        1.0635981953159637     
   1.0619999999999932       -21.117827525255471        1.0701312067770159     
   1.0629999999999931       -21.270960774434151        1.0766472457027152     
   1.0639999999999930       -21.420037936363801        1.0831460438768421     
   1.0649999999999928       -21.565126440898101        1.0896273357595185     
   1.0659999999999927       -21.706292666296346        1.0960908585048534     
   1.0669999999999926       -21.843601955816581        1.1025363519776865     
   1.0679999999999925       -21.977118634037897        1.1089635587694417     
   1.0689999999999924       -22.106906022916029        1.1153722242131046     
   1.0699999999999923       -22.233026457576766        1.1217620963973383     
   1.0709999999999922       -22.355541301851979        1.1281329261797570     
   1.0719999999999921       -22.474510963562306        1.1344844671993632     
   1.0729999999999920       -22.589994909551127        1.1408164758881700     
   1.0739999999999919       -22.702051680473641        1.1471287114820203     
   1.0749999999999917       -22.810738905345641        1.1534209360306145     
   1.0759999999999916       -22.916113315855796        1.1596929144067658     
   1.0769999999999915       -23.018230760445601        1.1659444143148927     
   1.0779999999999914       -23.117146218160695        1.1721752062987623     
   1.0789999999999913       -23.212913812277758        1.1783850637485032     
   1.0799999999999912       -23.305586823710534        1.1845737629068926     
   1.0809999999999911       -23.395217704198728        1.1907410828749405     
   1.0819999999999910       -23.481858089283687        1.1968868056167774     
   1.0829999999999909       -23.565558811074045        1.2030107159638590     
   1.0839999999999907       -23.646369910805348        1.2091126016185081     
   1.0849999999999906       -23.724340651196634        1.2151922531567960     
   1.0859999999999905       -23.799519528607956        1.2212494640307834     
   1.0869999999999904       -23.871954285001657        1.2272840305701314     
   1.0879999999999903       -23.941691919710923        1.2332957519830943     
   1.0889999999999902       -24.008778701019086        1.2392844303569086     
   1.0899999999999901       -24.073260177552395        1.2452498706575872     
   1.0909999999999900       -24.135181189489636        1.2511918807291340     
   1.0919999999999899       -24.194585879591834        1.2571102712921896     
   1.0929999999999898       -24.251517704054653        1.2630048559421194     
   1.0939999999999896       -24.306019443186745        1.2688754511465568     
   1.0949999999999895       -24.358133211916954        1.2747218762424126     
   1.0959999999999894       -24.407900470133086        1.2805439534323637     
   1.0969999999999893       -24.455362032855106        1.2863415077808285     
   1.0979999999999892       -24.500558080245693        1.2921143672094437     
   1.0989999999999891       -24.543528167460593        1.2978623624920547     
   1.0999999999999890       -24.584311234341627        1.3035853272492255     
   1.1009999999999889       -24.622945614954876        1.3092830979422838     
   1.1019999999999888       -24.659469046976763        1.3149555138669105     
   1.1029999999999887       -24.693918680930288        1.3206024171462829     
   1.1039999999999885       -24.726331089274261        1.3262236527237836     
   1.1049999999999884       -24.756742275347587        1.3318190683552853     
   1.1059999999999883       -24.785187682171383        1.3373885146010220     
   1.1069999999999882       -24.811702201110958        1.3429318448170553     
   1.1079999999999881       -24.836320180400200        1.3484489151463463     
   1.1089999999999880       -24.859075433530531        1.3539395845094455     
   1.1099999999999879       -24.880001247506701        1.3594037145948055     
   1.1109999999999878       -24.899130390971656        1.3648411698487311     
   1.1119999999999877       -24.916495122202541        1.3702518174649740     
   1.1129999999999876       -24.932127196980080        1.3756355273739809     
   1.1139999999999874       -24.946057876333334        1.3809921722318048     
   1.1149999999999873       -24.958317934161968        1.3863216274086911     
   1.1159999999999872       -24.968937664737929        1.3916237709773416     
   1.1169999999999871       -24.977946890088663        1.3968984837008711     
   1.1179999999999870       -24.985374967263631        1.4021456490204640     
   1.1189999999999869       -24.991250795486273        1.4073651530427378     
   1.1199999999999868       -24.995602823193131        1.4125568845268228     
   1.1209999999999867       -24.998459054961881        1.4177207348711662     
   1.1219999999999866       -24.999847058330548        1.4228565981000716     
   1.1229999999999865       -24.999793970509028        1.4279643708499772     
   1.1239999999999863       -24.998326504985286        1.4330439523554850     
   1.1249999999999862       -24.995470958027539        1.4380952444351469     
   1.1259999999999861       -24.991253215084328        1.4431181514770162     
   1.1269999999999860       -24.985698757084112        1.4481125804239710     
   1.1279999999999859       -24.978832666635952        1.4530784407588191     
   1.1289999999999858       -24.970679634132964        1.4580156444891907     
   1.1299999999999857       -24.961263963760135        1.4629241061322273     
   1.1309999999999856       -24.950609579407992        1.4678037426990698     
   1.1319999999999855       -24.938740030493722        1.4726544736791600     
   1.1329999999999854       -24.925678497691180        1.4774762210243595     
   1.1339999999999852       -24.911447798571345        1.4822689091328878     
   1.1349999999999851       -24.896070393154623        1.4870324648330953     
   1.1359999999999850       -24.879568389376423        1.4917668173670702     
   1.1369999999999849       -24.861963548467404        1.4964718983740932     
   1.1379999999999848       -24.843277290249898        1.5011476418739371     
   1.1389999999999847       -24.823530698351600        1.5057939842500292     
   1.1399999999999846       -24.802744525338202        1.5104108642324710     
   1.1409999999999845       -24.780939197765960        1.5149982228809316     
   1.1419999999999844       -24.758134821155746        1.5195560035674132     
   1.1429999999999843       -24.734351184889622        1.5240841519588999     
   1.1439999999999841       -24.709607767031411        1.5285826159998914     
   1.1449999999999840       -24.683923739072313        1.5330513458948316     
   1.1459999999999839       -24.657317970602843        1.5374902940904340     
   1.1469999999999838       -24.629809033912316        1.5418994152579124     
